 301 lines : R-XRS: A1 Be 48 micron, A2 Be 470 micron, B1 Al/C 250/110 nm, B2 Be 6.0 micron
 5 columns : Wavelength Sensitivity (electron/photon) and with Si=50 microns
    0.0413233      100.121      100.031      100.125      100.130
    0.0424409      105.622      105.518      105.627      105.632
    0.0435885      111.220      111.101      111.226      111.232
    0.0447674      116.882      116.745      116.889      116.896
    0.0459795      122.564      122.408      122.572      122.580
    0.0472231      130.331      130.149      130.340      130.349
    0.0484997      138.469      138.257      138.479      138.490
    0.0498112      146.936      146.691      146.948      146.960
    0.0511596      155.719      155.435      155.733      155.748
    0.0525430      164.799      164.471      164.816      164.832
    0.0539634      174.147      173.768      174.166      174.185
    0.0554229      183.730      183.293      183.752      183.773
    0.0569218      193.506      193.003      193.532      193.557
    0.0584626      203.419      202.841      203.449      203.477
    0.0600426      213.475      212.812      213.509      213.541
    0.0616674      226.288      225.520      226.328      226.365
    0.0633340      239.550      238.661      239.597      239.638
    0.0650488      253.198      252.172      253.253      253.301
    0.0668086      267.195      266.011      267.259      267.313
    0.0686130      281.480      280.117      281.554      281.616
    0.0704695      295.984      294.418      296.069      296.140
    0.0723743      310.617      308.822      310.716      310.797
    0.0743315      325.279      323.225      325.392      325.484
    0.0763456      339.836      337.491      339.966      340.070
    0.0784074      357.899      355.202      358.051      358.169
    0.0805314      378.180      375.068      378.357      378.491
    0.0827073      399.005      395.420      399.210      399.364
    0.0849459      420.285      416.161      420.522      420.698
    0.0872414      441.991      437.255      442.265      442.465
    0.0895996      463.902      458.477      464.219      464.446
    0.0920273      485.974      479.770      486.339      486.596
    0.0945109      507.996      500.918      508.416      508.706
    0.0970715      529.775      521.720      530.257      530.584
    0.0996944      551.124      541.981      551.675      552.042
     0.102395      578.665      568.191      579.301      579.718
     0.105166      607.412      595.419      608.146      608.619
     0.108007      636.385      622.681      637.230      637.765
     0.110925      665.357      649.733      666.327      666.932
     0.113933      694.126      676.354      695.239      695.920
     0.117008      722.479      702.314      723.752      724.518
     0.120173      750.069      727.249      751.521      752.379
     0.123427      773.435      747.790      775.088      776.035
     0.126763      794.809      766.093      796.686      797.725
     0.130192      821.946      789.592      824.079      825.238
     0.133712      855.406      818.725      857.844      859.146
     0.137329      888.108      846.628      890.888      892.346
     0.141043      919.655      872.879      922.817      924.446
     0.144859      949.721      897.127      953.307      955.121
     0.148777      977.846      918.900      981.901      983.915
     0.152800      1003.67      937.822      1008.24      1010.47
     0.156934      1026.71      953.445      1031.84      1034.30
     0.161178      1046.50      965.323      1052.24      1054.94
     0.165538      1062.54      972.974      1068.93      1071.89
     0.170015      1088.51      988.834      1095.70      1098.96
     0.174613      1113.22      1002.52      1121.28      1124.88
     0.179337      1134.68      1012.19      1143.69      1147.65
     0.184186      1152.53      1017.52      1162.58      1166.91
     0.189169      1166.38      1018.19      1177.54      1182.26
     0.194286      1175.84      1013.88      1188.19      1193.31
     0.199540      1180.60      1004.41      1194.20      1199.74
     0.204936      1180.39      989.624      1195.31      1201.28
     0.210479      1174.98      969.570      1191.27      1197.67
     0.216171      1170.56      949.386      1188.34      1195.21
     0.222021      1171.98      932.816      1191.50      1198.91
     0.228024      1169.10      911.639      1190.45      1198.41
     0.234193      1161.89      885.983      1185.15      1193.66
     0.240527      1150.36      856.086      1175.61      1184.69
     0.247031      1134.65      822.271      1161.96      1171.60
     0.253715      1114.90      785.072      1144.30      1154.50
     0.260573      1091.33      744.837      1122.86      1133.62
     0.267621      1064.15      701.982      1097.84      1109.14
     0.274860      1033.66      657.053      1069.52      1081.34
     0.282295      1009.93      616.562      1048.33      1060.77
     0.289934      987.790      577.100      1028.97      1042.07
     0.297776      963.567      536.624      1007.61      1021.37
     0.305827      937.485      495.568      984.474      998.893
     0.314103      909.765      454.499      959.749      974.824
     0.322595      880.648      413.860      933.657      949.383
     0.331320      850.239      373.851      906.325      922.690
     0.340278      818.701      334.848      877.900      894.888
     0.349487      786.115      297.161      848.447      866.034
     0.358938      754.786      261.883      820.434      838.644
     0.368640      731.146      231.094      800.925      819.952
     0.378615      706.758      201.828      780.803      800.648
     0.388852      681.688      174.320      760.120      780.781
     0.399375      655.936      148.741      738.858      760.325
     0.410171      629.570      125.271      717.062      739.318
     0.421265      602.719      104.227      694.696      717.740
     0.432660      575.363      85.4892      671.779      695.588
     0.444369      547.485      68.9841      648.297      672.835
     0.456393      519.148      54.6862      624.267      649.486
     0.468731      494.754      42.9029      604.998      631.068
     0.481399      472.522      33.1693      588.494      615.522
     0.494436      449.827      25.0947      571.550      599.512
     0.507803      426.770      18.5516      554.221      583.083
     0.521540      403.378      13.3710      536.482      566.195
     0.535646      379.729      9.37601      518.347      548.854
     0.550122      355.909      6.38183      499.837      531.068
     0.565015      331.970      4.20416      480.921      512.792
     0.580302      308.044      2.67389      461.650      494.063
     0.595981      284.492      1.63846      442.431      475.306
     0.612107      264.717     0.976129      428.696      462.334
     0.628651      245.142     0.560016      414.765      449.042
     0.645677      225.820     0.308314      400.495      435.393
     0.663118      206.764     0.161602      385.963      421.411
     0.681079      183.392    0.0782278      361.969      396.994
     0.699487      166.804    0.0369124      349.821      385.459
     0.718417      150.293    0.0163162      336.777      372.814
     0.737829      134.099   0.00672695      323.117      359.209
     0.757809      118.415   0.00256984      308.803      344.784
     0.778266      104.099  0.000911233      295.848      331.764
     0.799342      91.2117  0.000297966      369.551      320.656
     0.820939      79.0481  8.87244e-05      360.547      309.070
     0.843161      67.8428  2.43635e-05      351.134      297.116
     0.865954      57.5650  6.06337e-06      341.389      284.837
     0.889375      48.2075  1.34560e-06      331.309      272.241
     0.913425      39.8053  2.63806e-07      320.917      259.376
     0.938172      32.3649  4.51676e-08      310.212      246.264
     0.963547      25.8898  6.69614e-09      299.237      232.978
     0.989622      20.3436  8.48039e-10      287.979      219.537
      1.01631      15.8924  9.20131e-11      280.124      208.736
      1.04387      12.1825  8.29106e-12      272.387      198.009
      1.07203      9.14727  6.15466e-13      264.478      187.179
      1.10107      6.70962  3.67669e-14      256.338      176.223
      1.13080      4.80081  1.74082e-15      248.019      165.216
      1.16142      3.34342  6.40898e-17      239.479      154.173
      1.19282      2.26226  1.80269e-18      230.756      143.162
      1.22512      1.48221  3.75517e-20      221.883      132.206
      1.25825     0.937048  5.59926e-22      212.811      121.357
      1.29228     0.572525  5.84580e-24      204.472      111.171
      1.32723     0.339982  4.30491e-26      197.882      102.189
      1.36313     0.194833  2.25893e-28      191.142      93.4270
      1.40000     0.107299  8.11269e-31      184.255      84.9056
      1.43787    0.0563089  1.83708e-33      177.222      76.6124
      1.47677    0.0278986  2.39779e-36      170.053      68.5512
      1.51669    0.0130077  1.74871e-39      162.762      60.7956
      1.55773   0.00569375  6.97847e-43      155.346      53.4176
      1.59986   0.00233290      0.00000      147.827      46.4775
      1.64312  0.000892885      0.00000      140.234      40.0299
      1.68756  0.000318275      0.00000      133.395      34.2959
      1.73322  0.000105086      0.00000      127.437      29.2523
      1.78010  3.36446e-05      0.00000      121.812      24.8746
      1.82825  1.02366e-05      0.00000      116.218      20.9971
      1.87768  2.51229e-06      0.00000      110.334      17.2351
      1.92847  5.32110e-07      0.00000      104.343      13.8726
      1.98064  1.05564e-07      0.00000      98.3987      11.0615
      2.03420  1.91510e-08      0.00000      92.4904      8.71034
      2.08922  3.04568e-09      0.00000      86.5846      6.73695
      2.14574  4.17568e-10      0.00000      80.7067      5.10660
      2.20375  4.82834e-11      0.00000      74.9523      3.78535
      2.26338  4.92354e-12      0.00000      70.1799      2.78750
      2.32458  4.46859e-13      0.00000      66.2458      2.04194
      2.38748  3.28578e-14      0.00000      61.5628      1.44127
      2.45204  1.94810e-15      0.00000      56.9357     0.989160
      2.51833  9.26088e-17      0.00000      52.4290     0.659540
      2.58648  3.46748e-18      0.00000      48.0469     0.426230
      2.65642  1.00621e-19      0.00000      43.7984     0.266417
      2.72827  2.23314e-21      0.00000      39.8443     0.161341
      2.80209  3.76060e-23      0.00000      36.2605    0.0947973
      2.87787  4.64895e-25      0.00000      32.8628    0.0535284
      2.95568  4.10180e-27      0.00000      29.6690    0.0289429
      3.03565  2.50153e-29      0.00000      26.6135    0.0149237
      3.11772  1.04466e-31      0.00000      23.7122   0.00732910
      3.20204  3.49118e-34      0.00000      20.9777   0.00349570
      3.28868  9.23699e-37      0.00000      18.5838   0.00162895
      3.37765  1.64738e-39      0.00000      16.4006  0.000721714
      3.46895  1.86933e-42      0.00000      14.3420  0.000301810
      3.56277  1.40130e-45      0.00000      12.3633  0.000118551
      3.65920      0.00000      0.00000      10.5532  4.35409e-05
      3.75815      0.00000      0.00000      8.95576  1.49527e-05
      3.85983      0.00000      0.00000      7.54386  4.77100e-06
      3.96425      0.00000      0.00000      6.28450  1.39748e-06
      4.07140      0.00000      0.00000      5.17366  3.67933e-07
      4.18154      0.00000      0.00000      4.20532  8.75068e-08
      4.29467      0.00000      0.00000      3.39120  1.88391e-08
      4.41080      0.00000      0.00000      8.07622  3.63059e-09
      4.53007      0.00000      0.00000      6.76449  6.20355e-10
      4.65266      0.00000      0.00000      5.64125  9.31317e-11
      4.77837      0.00000      0.00000      4.82000  1.22718e-11
      4.90776      0.00000      0.00000      4.11721  1.39799e-12
      5.04046      0.00000      0.00000      3.47699  1.35825e-13
      5.17685      0.00000      0.00000      2.88900  1.14478e-14
      5.31672      0.00000      0.00000      2.37815  1.05162e-15
      5.46051      0.00000      0.00000      1.94475  8.64468e-17
      5.60823      0.00000      0.00000      1.55117  6.07537e-18
      5.75988      0.00000      0.00000      1.19998  3.59807e-19
      5.91573      0.00000      0.00000     0.926523  1.79857e-20
      6.07577      0.00000      0.00000     0.707730  7.48175e-22
      6.24000      0.00000      0.00000     0.532556  2.54224e-23
      6.40904      0.00000      0.00000     0.385937  6.79809e-25
      6.58224      0.00000      0.00000     0.270577  1.42300e-26
      6.76028      0.00000      0.00000     0.185369  2.49382e-28
      6.94315      0.00000      0.00000     0.127914  4.17009e-30
      7.13086      0.00000      0.00000    0.0971883  5.47129e-32
      7.32380      0.00000      0.00000    0.0749140  5.55539e-34
      7.52199      0.00000      0.00000    0.0599446  4.49207e-36
      7.72543      0.00000      0.00000    0.0476068  3.22273e-38
      7.93408      0.00000      0.00000    0.0379917  4.27246e-40
      8.14895      0.00000      0.00000    0.0302876  4.70836e-42
      8.36900      0.00000      0.00000    0.0245806  2.94273e-44
      8.59590      0.00000      0.00000    0.0201173      0.00000
      8.82789      0.00000      0.00000    0.0163843      0.00000
      9.06677      0.00000      0.00000    0.0132113      0.00000
      9.31195      0.00000      0.00000    0.0104181      0.00000
      9.56411      0.00000      0.00000   0.00821665      0.00000
      9.82252      0.00000      0.00000   0.00653786      0.00000
      10.0887      0.00000      0.00000   0.00598508      0.00000
      10.3611      0.00000      0.00000   0.00628232      0.00000
      10.6412      0.00000      0.00000   0.00656624      0.00000
      10.9292      0.00000      0.00000   0.00683297      0.00000
      11.2251  2.02045e-21      0.00000   0.00705922    0.0389630
      11.5289  4.79750e-23      0.00000   0.00725999    0.0237750
      11.8405  8.83264e-25      0.00000   0.00758993    0.0142796
      12.1611  1.22056e-26      0.00000   0.00814101   0.00831258
      12.4894  1.24254e-28      0.00000   0.00883965   0.00465476
      12.8272  9.24598e-31      0.00000   0.00983927   0.00257032
      13.1741  4.60499e-33      0.00000    0.0104460   0.00129934
      13.5304  1.56360e-35      0.00000    0.0110382  0.000625588
      13.8964  3.61202e-38      0.00000    0.0115589  0.000285751
      14.2722  1.47156e-40      0.00000    0.0123694  0.000139804
      14.6583  6.61413e-43      0.00000    0.0161365  6.90548e-05
      15.0548  2.80260e-45      0.00000    0.0216235  3.24860e-05
      15.4620      0.00000      0.00000    0.0281554  1.46321e-05
      15.8802      0.00000      0.00000    0.0362755  6.40638e-06
      16.3097      0.00000      0.00000    0.0459848  2.69821e-06
      16.7509      0.00000      0.00000    0.0566034  1.07631e-06
      17.2040      0.00000      0.00000      3.22477  4.02712e-07
      17.6691      0.00000      0.00000      2.86416  1.43540e-07
      18.1471      0.00000      0.00000      2.55546  4.89176e-08
      18.6379      0.00000      0.00000      2.25785  1.56772e-08
      19.1421      0.00000      0.00000      1.97702  4.69607e-09
      19.6597      0.00000      0.00000      1.72461  1.31743e-09
      20.1915      0.00000      0.00000      1.50244  3.45821e-10
      20.7377      0.00000      0.00000      1.32933  8.47955e-11
      21.2985      0.00000      0.00000      1.18808  1.94381e-11
      21.8746      0.00000      0.00000      1.04649  4.13268e-12
      22.4661      0.00000      0.00000     0.911570  9.80151e-13
      23.0741      0.00000      0.00000     0.800456  2.23487e-13
      23.6982      0.00000      0.00000     0.688584  4.74208e-14
      24.3389      0.00000      0.00000     0.584498  9.56251e-15
      24.9975      0.00000      0.00000     0.492004  1.93729e-15
      25.6736      0.00000      0.00000     0.412416  3.66822e-16
      26.3676      0.00000      0.00000     0.348061  6.54511e-17
      27.0807      0.00000      0.00000     0.292999  1.07924e-17
      27.8134      0.00000      0.00000     0.239862  1.63235e-18
      28.5658      0.00000      0.00000     0.190599  2.26489e-19
      29.3385      0.00000      0.00000     0.150322  2.89639e-20
      30.1315      0.00000      0.00000     0.117984  3.41518e-21
      30.9469      0.00000      0.00000    0.0912108  3.64563e-22
      31.7839      0.00000      0.00000    0.0701051  3.51678e-23
      32.6434      0.00000      0.00000    0.0540579  3.77365e-24
      33.5262      0.00000      0.00000    0.0409293  5.02172e-25
      34.4332      0.00000      0.00000    0.0304533  6.21139e-26
      35.3644      0.00000      0.00000    0.0224307  7.17871e-27
      36.3208      0.00000      0.00000    0.0162425  7.76764e-28
      37.3033      0.00000      0.00000    0.0115128  7.75827e-29
      38.3120      0.00000      0.00000   0.00800672  7.14197e-30
      39.3481      0.00000      0.00000   0.00544297  6.03212e-31
      40.4127      0.00000      0.00000   0.00360882  4.65136e-32
      41.5060      0.00000      0.00000   0.00232967  3.27299e-33
      42.6292      0.00000      0.00000   0.00148547  1.74708e-34
      43.7809      0.00000      0.00000  0.000928342  7.08572e-36
      44.9655      0.00000      0.00000  0.000565350  2.52775e-37
      46.1816      0.00000      0.00000  0.000337761  7.97448e-39
      47.4308      0.00000      0.00000  0.000195132  2.19050e-40
      48.7131      0.00000      0.00000  0.000112194  5.21003e-42
      50.0323      0.00000      0.00000  6.29224e-05  1.06499e-43
      51.3844      0.00000      0.00000  3.42163e-05  1.40130e-45
      52.7734      0.00000      0.00000  1.78666e-05      0.00000
      54.2016      0.00000      0.00000  9.22935e-06      0.00000
      55.6668      0.00000      0.00000  5.35165e-06      0.00000
      57.1738      0.00000      0.00000  3.04546e-06      0.00000
      58.7202      0.00000      0.00000  1.70552e-06      0.00000
      60.3084      0.00000      0.00000  9.60202e-07      0.00000
      61.9385      0.00000      0.00000  6.18225e-07      0.00000
      63.6135      0.00000      0.00000  4.31174e-07      0.00000
      65.3368      0.00000      0.00000  2.98898e-07      0.00000
      67.1015      0.00000      0.00000  2.09093e-07      0.00000
      68.9182      0.00000      0.00000  1.44632e-07      0.00000
      70.7793      0.00000      0.00000  1.05784e-07      0.00000
      72.6969      0.00000      0.00000  8.24365e-08      0.00000
      74.6627      0.00000      0.00000  6.17126e-08      0.00000
      76.6809      0.00000      0.00000  4.40195e-08      0.00000
      78.7561      0.00000      0.00000  3.77647e-08      0.00000
      80.8834      0.00000      0.00000  1.84739e-08      0.00000
      83.0731      0.00000      0.00000  9.86437e-10      0.00000
      85.3200      0.00000      0.00000  4.58756e-12      0.00000
      87.6299      0.00000      0.00000  4.34292e-13      0.00000
      89.9964      0.00000      0.00000  1.37584e-13      0.00000
      92.4322      0.00000      0.00000  4.83715e-14      0.00000
      94.9307      0.00000      0.00000  2.75143e-14      0.00000
      97.4990      0.00000      0.00000  1.53501e-14      0.00000
      100.137      0.00000      0.00000  9.26783e-15      0.00000
      102.846      0.00000      0.00000  6.08274e-15      0.00000
      105.623      0.00000      0.00000  4.10798e-15      0.00000
      108.479      0.00000      0.00000  2.58483e-15      0.00000
      111.414      0.00000      0.00000  1.45753e-15      0.00000
      114.427      0.00000      0.00000  5.11445e-16      0.00000
      117.529      0.00000      0.00000  1.44488e-16      0.00000
      120.711      0.00000      0.00000  3.71659e-17      0.00000
